Time (s),Joint Vel 1,Joint Vel 2,Joint Vel 3,Body Vel X,Body Vel Y,Body Vel Z
1,0,0,0,0,0,0
1.01,1.047,1.047,1.047,-0.213,0.092,-0.178
1.02,1.833,1.833,1.833,-0.312,0.122,-0.327
1.03,2.029,2.029,2.029,-0.34,0.118,-0.442
1.04,2.078,2.078,2.078,-0.374,0.124,-0.526
1.05,2.09,2.09,2.09,-0.454,0.168,-0.561
1.06,2.093,2.093,2.093,-0.531,0.211,-0.595
1.07,2.094,2.094,2.094,-0.607,0.256,-0.628
1.08,2.094,2.094,2.094,-0.681,0.302,-0.661
1.09,2.094,2.094,2.094,-0.753,0.351,-0.693
1.1,2.094,2.094,2.094,-0.823,0.402,-0.724
1.11,2.094,2.094,2.094,-0.884,0.464,-0.748
1.12,1.934,1.958,1.934,-0.846,0.497,-0.72
1.13,1.591,1.923,1.591,-0.706,0.41,-0.697
1.14,1.244,1.872,1.245,-0.567,0.346,-0.665
1.15,0.95,1.805,0.95,-0.448,0.295,-0.626
1.16,0.716,1.714,0.716,-0.35,0.251,-0.582
1.17,0.536,1.601,0.536,-0.273,0.214,-0.533
1.18,0.4,1.468,0.4,-0.212,0.181,-0.482
1.19,0.298,1.322,0.298,-0.164,0.152,-0.428
1.2,0.221,1.164,0.221,-0.127,0.126,-0.372
1.21,0.165,0.998,0.165,-0.098,0.103,-0.315
1.22,0.122,0.826,0.122,-0.074,0.081,-0.258
1.23,0.091,0.649,0.091,-0.056,0.061,-0.199
1.24,0.067,0.47,0.067,-0.041,0.042,-0.14
1.25,0.05,0.287,0.05,-0.028,0.024,-0.081
1.26,0.037,0.103,0.037,-0.018,0.007,-0.022
1.27,0.028,-0.083,0.028,-0.009,-0.011,0.037
1.28,0.021,-0.27,0.021,0,-0.028,0.097
1.29,0.015,-0.46,0.015,0.007,-0.047,0.156
1.3,0.011,-0.65,0.011,0.015,-0.066,0.216
1.31,0.008,-0.842,0.008,0.023,-0.086,0.276
1.32,0.006,-1.035,0.006,0.031,-0.109,0.336
1.33,0.005,-1.221,0.005,0.037,-0.127,0.376
1.34,0.003,-1.146,0.003,0.035,-0.118,0.338
1.35,0.003,-0.949,0.003,0.029,-0.099,0.275
1.36,0.002,-0.744,0.002,0.023,-0.079,0.214
1.37,0.001,-0.569,0.001,0.018,-0.061,0.162
1.38,0.001,-0.429,0.001,0.013,-0.046,0.122
1.39,0.001,-0.321,0.001,0.01,-0.035,0.091
1.4,0.001,-0.24,0.001,0.007,-0.026,0.068
1.41,0,-0.179,0.001,0.005,-0.02,0.051
1.42,0,-0.133,0,0.004,-0.015,0.038
1.43,0,-0.099,0,0.003,-0.011,0.028
1.44,0,-0.073,0,0.002,-0.008,0.021
1.45,0,-0.054,0,0.001,-0.006,0.015
1.46,0,-0.04,0,0.001,-0.004,0.011
1.47,0,-0.03,0,0,-0.003,0.009
1.48,0,-0.022,0,0,-0.002,0.006
1.49,0,-0.017,0,0,-0.002,0.005
1.5,0,-0.012,0,0,-0.001,0.003
1.51,0,-0.009,0,0,-0.001,0.003
1.52,0,-0.007,0,0,-0.001,0.002
1.53,0,-0.005,0,0,0,0.001
1.54,0,-0.004,0,0,0,0.001
1.55,0,-0.003,0,-0.001,0,0.001
1.56,0,-0.002,0,-0.001,0,0.001
1.57,0,-0.001,0,-0.001,0,0
1.58,0,-0.001,0,-0.001,0,0
1.59,0,-0.001,0,-0.001,0,0
1.6,0,-0.001,0,-0.001,0,0
1.61,0,0,0,-0.001,0,0
1.62,0,0,0,-0.001,0,0
1.63,0,0,0,-0.001,0,0
1.64,0,0,0,-0.001,0,0
1.65,0,0,0,-0.001,0,0
1.66,0,0,0,-0.001,0,0
1.67,0,0,0,-0.001,0,0
1.68,0,0,0,-0.001,0,0
1.69,0,0,0,-0.001,0,0
1.7,0,0,0,0,0,0
1.71,0,0,0,0,0,0
1.72,0,0,0,0,0,0
1.73,0,0,0,0,0,0
1.74,0,0,0,0,0,0
1.75,0,0,0,0,0,0
1.76,0,0,0,0,0,0
1.77,0,0,0,0,0,0
1.78,0,0,0,0,0,0
1.79,0,0,0,0,0,0
1.8,0,0,0,0,0,0
1.81,0,0,0,0,0,0
1.82,0,0,0,0,0,0
1.83,0,0,0,0,0,0
1.84,0,0,0,0,0,0
1.85,0,0,0,0,0,0
1.86,0,0,0,0,0,0
1.87,0,0,0,0,0,0
1.88,0,0,0,0,0,0
1.89,0,0,0,0,0,0
1.9,0,0,0,0,0,0
1.91,0,0,0,0,0,0
1.92,0,0,0,0,0,0
1.93,0,0,0,0,0,0
1.94,0,0,0,0,0,0
1.95,0,0,0,0,0,0
1.96,0,0,0,0,0,0
1.97,0,0,0,0,0,0
1.98,0,0,0,0,0,0
1.99,0,0,0,0,0,0
2,0,0,0,0,0,0
2.01,0,0,0,0,0,0
2.02,-0.617,0.441,-1.047,0.234,-0.058,-0.014
2.03,-1.216,0.668,-1.833,0.47,-0.082,0.012
2.04,-1.697,0.596,-2.029,0.688,-0.101,0.048
2.05,-1.995,0.478,-2.078,0.855,-0.131,0.092
2.06,-2.07,0.272,-2.09,0.878,-0.178,0.151
2.07,-2.088,0.04,-2.093,0.881,-0.231,0.213
2.08,-2.093,-0.206,-2.094,0.877,-0.287,0.276
2.09,-2.094,-0.466,-2.094,0.869,-0.348,0.339
2.1,-2.094,-0.741,-2.094,0.859,-0.413,0.403
2.11,-2.094,-1.032,-2.094,0.847,-0.483,0.467
2.12,-2.094,-1.342,-2.094,0.831,-0.559,0.532
2.13,-2.094,-1.678,-2.094,0.813,-0.645,0.598
2.14,-2.094,-1.974,-2.094,0.789,-0.716,0.629
2.15,-2.094,-2.064,-2.094,0.76,-0.762,0.615
2.16,-2.094,-2.087,-2.094,0.729,-0.797,0.587
2.17,-2.094,-2.092,-2.094,0.697,-0.828,0.555
2.18,-2.094,-2.094,-2.094,0.663,-0.857,0.522
2.19,-2.094,-2.094,-2.094,0.629,-0.882,0.489
2.2,-2.094,-2.094,-2.094,0.593,-0.905,0.455
2.21,-2.094,-2.094,-2.094,0.557,-0.926,0.421
2.22,-2.094,-2.094,-2.094,0.52,-0.943,0.387
2.23,-2.094,-2.094,-2.094,0.482,-0.959,0.353
2.24,-2.094,-2.094,-2.094,0.444,-0.971,0.318
2.25,-2.094,-2.094,-2.094,0.406,-0.981,0.284
2.26,-2.094,-2.094,-2.094,0.368,-0.989,0.249
2.27,-2.094,-2.094,-2.021,0.332,-0.963,0.222
2.28,-1.935,-2.094,-1.708,0.26,-0.885,0.21
2.29,-1.591,-2.094,-1.353,0.168,-0.796,0.207
2.3,-1.245,-2.094,-1.039,0.088,-0.716,0.207
2.31,-0.95,-2.094,-0.786,0.026,-0.653,0.207
2.32,-0.716,-2.094,-0.589,-0.021,-0.605,0.207
2.33,-0.536,-2.094,-0.44,-0.056,-0.57,0.205
2.34,-0.4,-2.094,-0.328,-0.081,-0.545,0.202
2.35,-0.298,-2.094,-0.244,-0.1,-0.527,0.198
2.36,-0.221,-2.094,-0.181,-0.114,-0.515,0.192
2.37,-0.165,-1.995,-0.135,-0.113,-0.467,0.169
2.38,-0.122,-1.663,-0.1,-0.096,-0.382,0.133
2.39,-0.091,-1.309,-0.074,-0.077,-0.298,0.101
2.4,-0.067,-1.003,-0.055,-0.06,-0.228,0.075
2.41,-0.05,-0.757,-0.041,-0.046,-0.171,0.055
2.42,-0.037,-0.567,-0.03,-0.035,-0.128,0.041
2.43,-0.028,-0.423,-0.023,-0.026,-0.095,0.03
2.44,-0.021,-0.315,-0.017,-0.02,-0.071,0.022
2.45,-0.015,-0.234,-0.012,-0.015,-0.053,0.016
2.46,-0.011,-0.174,-0.009,-0.012,-0.039,0.012
2.47,-0.008,-0.129,-0.007,-0.009,-0.029,0.009
2.48,-0.006,-0.096,-0.005,-0.007,-0.021,0.007
2.49,-0.005,-0.071,-0.004,-0.006,-0.015,0.005
2.5,-0.003,-0.053,-0.003,-0.005,-0.011,0.004
2.51,-0.003,-0.039,-0.002,-0.004,-0.008,0.003
2.52,-0.002,-0.029,-0.002,-0.003,-0.006,0.002
2.53,-0.001,-0.022,-0.001,-0.003,-0.004,0.002
2.54,-0.001,-0.016,-0.001,-0.002,-0.003,0.001
2.55,-0.001,-0.012,-0.001,-0.002,-0.002,0.001
2.56,-0.001,-0.009,-0.001,-0.002,-0.001,0.001
2.57,0,-0.007,0,-0.002,-0.001,0.001
2.58,0,-0.005,0,-0.002,0,0.001
2.59,0,-0.004,0,-0.001,0,0.001
2.6,0,-0.003,0,-0.001,0,0
2.61,0,-0.002,0,-0.001,0,0
2.62,0,-0.001,0,-0.001,0,0
2.63,0,-0.001,0,-0.001,0,0
2.64,0,-0.001,0,-0.001,0,0
2.65,0,-0.001,0,-0.001,0.001,0
2.66,0,0,0,-0.001,0.001,0
2.67,0,0,0,-0.001,0.001,0
2.68,0,0,0,-0.001,0.001,0
2.69,0,0,0,-0.001,0.001,0
2.7,0,0,0,-0.001,0.001,0
2.71,0,0,0,-0.001,0.001,0
2.72,0,0,0,-0.001,0.001,0
2.73,0,0,0,-0.001,0.001,0
2.74,0,0,0,-0.001,0.001,0
2.75,0,0,0,-0.001,0.001,0
2.76,0,0,0,-0.001,0.001,0
2.77,0,0,0,-0.001,0.001,0
2.78,0,0,0,-0.001,0.001,0
2.79,0,0,0,-0.001,0.001,0
2.8,0,0,0,-0.001,0.001,0
2.81,0,0,0,-0.001,0.001,0
2.82,0,0,0,-0.001,0.001,0
2.83,0,0,0,-0.001,0.001,0
2.84,0,0,0,-0.001,0.001,0
2.85,0,0,0,-0.001,0.001,0
2.86,0,0,0,-0.001,0.001,0
2.87,0,0,0,-0.001,0.001,0
2.88,0,0,0,-0.001,0,0
2.89,0,0,0,-0.001,0,0
2.9,0,0,0,-0.001,0,0
2.91,0,0,0,-0.001,0,0
2.92,0,0,0,-0.001,0,0
2.93,0,0,0,-0.001,0,0
2.94,0,0,0,-0.001,0,0
2.95,0,0,0,-0.001,0,0
2.96,0,0,0,-0.001,0,0
2.97,0,0,0,-0.001,0,0
2.98,0,0,0,-0.001,0,0
2.99,0,0,0,-0.001,0,0
3,0,0,0,-0.001,0,0
3.01,0,0,0,-0.001,0,0
3.02,1.047,0.767,0.242,-0.128,0.248,-0.046
3.03,1.833,1.763,0.742,-0.166,0.488,-0.058
3.04,2.029,2.011,1.341,-0.177,0.687,-0.029
3.05,2.078,2.073,1.874,-0.196,0.836,-0.02
3.06,2.09,2.089,2.039,-0.222,0.937,-0.043
3.07,2.093,2.093,2.08,-0.258,0.997,-0.074
3.08,2.094,2.094,2.091,-0.296,0.999,-0.107
3.09,2.094,2.094,2.093,-0.334,0.999,-0.141
3.1,2.094,2.094,2.094,-0.372,0.996,-0.176
3.11,2.094,2.094,2.094,-0.411,0.991,-0.211
3.12,2.094,2.094,2.094,-0.445,0.982,-0.245
3.13,1.934,1.976,2.094,-0.427,0.924,-0.248
3.14,1.591,1.639,2.015,-0.368,0.798,-0.222
3.15,1.244,1.288,1.698,-0.301,0.637,-0.188
3.16,0.95,0.985,1.343,-0.239,0.49,-0.153
3.17,0.716,0.743,1.031,-0.186,0.37,-0.121
3.18,0.536,0.557,0.779,-0.142,0.277,-0.094
3.19,0.4,0.415,0.584,-0.108,0.206,-0.072
3.2,0.298,0.309,0.436,-0.082,0.154,-0.054
3.21,0.221,0.23,0.325,-0.062,0.114,-0.041
3.22,0.164,0.171,0.242,-0.047,0.085,-0.031
3.23,0.122,0.127,0.18,-0.035,0.063,-0.023
3.24,0.091,0.094,0.133,-0.027,0.047,-0.017
3.25,0.067,0.07,0.099,-0.02,0.035,-0.013
3.26,0.05,0.052,0.074,-0.015,0.026,-0.009
3.27,0.037,0.039,0.055,-0.012,0.019,-0.007
3.28,0.028,0.029,0.041,-0.009,0.014,-0.005
3.29,0.021,0.021,0.03,-0.007,0.011,-0.004
3.3,0.015,0.016,0.022,-0.006,0.008,-0.003
3.31,0.011,0.012,0.017,-0.005,0.006,-0.002
3.32,0.008,0.009,0.012,-0.004,0.004,-0.001
3.33,0.006,0.006,0.009,-0.003,0.003,-0.001
3.34,0.005,0.005,0.007,-0.003,0.003,-0.001
3.35,0.003,0.004,0.005,-0.002,0.002,0
3.36,0.002,0.003,0.004,-0.002,0.001,0
3.37,0.002,0.002,0.003,-0.002,0.001,0
3.38,0.001,0.001,0.002,-0.002,0.001,0
3.39,0.001,0.001,0.002,-0.002,0.001,0
3.4,0.001,0.001,0.001,-0.001,0.001,0
3.41,0.001,0.001,0.001,-0.001,0,0
3.42,0,0,0.001,-0.001,0,0
3.43,0,0,0,-0.001,0,0
3.44,0,0,0,-0.001,0,0
3.45,0,0,0,-0.001,0,0
3.46,0,0,0,-0.001,0,0
3.47,0,0,0,-0.001,0,0
3.48,0,0,0,-0.001,0,0
3.49,0,0,0,-0.001,0,0
3.5,0,0,0,-0.001,0,0
3.51,0,0,0,-0.001,0,0
3.52,0,0,0,-0.001,0,0
3.53,0,0,0,-0.001,0,0
3.54,0,0,0,-0.001,0,0
3.55,0,0,0,-0.001,0,0
3.56,0,0,0,-0.001,0,0
3.57,0,0,0,-0.001,0,0
3.58,0,0,0,-0.001,0,0
3.59,0,0,0,-0.001,0,0
3.6,0,0,0,-0.001,0,0
3.61,0,0,0,-0.001,0,0
3.62,0,0,0,-0.001,0,0
3.63,0,0,0,-0.001,0,0
3.64,0,0,0,-0.001,0,0
3.65,0,0,0,-0.001,0,0
3.66,0,0,0,-0.001,0,0
3.67,0,0,0,-0.001,0,0
3.68,0,0,0,-0.001,0,0
3.69,0,0,0,-0.001,0,0
3.7,0,0,0,-0.001,0,0
3.71,0,0,0,-0.001,0,0
3.72,0,0,0,-0.001,0,0
3.73,0,0,0,-0.001,0,0
3.74,0,0,0,-0.001,0,0
3.75,0,0,0,-0.001,0,0
3.76,0,0,0,-0.001,0,0
3.77,0,0,0,-0.001,0,0
3.78,0,0,0,-0.001,0,0
3.79,0,0,0,-0.001,0,0
3.8,0,0,0,-0.001,0,0
3.81,0,0,0,-0.001,0,0
3.82,0,0,0,-0.001,0,0
3.83,0,0,0,-0.001,0,0
3.84,0,0,0,-0.001,0,0
3.85,0,0,0,-0.001,0,0
3.86,0,0,0,-0.001,0,0
3.87,0,0,0,-0.001,0,0
3.88,0,0,0,-0.001,0,0
3.89,0,0,0,-0.001,0,0
3.9,0,0,0,-0.001,0,0
3.91,0,0,0,-0.001,0,0
3.92,0,0,0,-0.001,0,0
3.93,0,0,0,-0.001,0,0
3.94,0,0,0,-0.001,0,0
3.95,0,0,0,-0.001,0,0
3.96,0,0,0,-0.001,0,0
3.97,0,0,0,-0.001,0,0
3.98,0,0,0,-0.001,0,0
3.99,0,0,0,-0.001,0,0
4,0,0,0,-0.001,0,0
